# # xx                                                           FEFF 9.9.1  
# # POT  SCF  30  6.1000   0, screened core-hole, AFOLP (folp(0)= 1.150)
# # Abs   Z=22 Rmt= 1.382 Rnm= 1.451 K  shell
# # Pot 1 Z=22 Rmt= 1.382 Rnm= 1.451
# # Pot 2 Z= 8 Rmt= 1.011 Rnm= 1.063
# # Gam_ch=9.030E-01 H-L exch Vi= 0.000E+00 Vr= 0.000E+00
# # Mu=-1.318E+01eV kf=2.196E+00 Vint=-2.491E+01eV Rs_int= 1.652
# FMS rfms= 8.1000
# # PATH  Rmax=-1.000,  Keep_limit= 0.00, Heap_limit 0.00  Pwcrit= 2.50%
#  S02=0.943  Temp=   0.00  Debye_temp=   0.00  Global_sig2= 0.00000
#  Energy zero shift, vr, vi    0.00000E+00   0.00000E+00
#  Curved wave amplitude ratio filter   4.000%
#     file         sig2 tot  cw amp ratio   deg  nlegs   reff  inp sig2
#     0/   0 paths used
#  xsedge+ 50, used to normalize mu           4.7327E-04
#  -----------------------------------------------------------------------
#  omega    e    k    mu    mu0     chi     @#
    4967.881    -16.995  -1.000  1.84186E-02  2.86015E-02 -1.01829E-02
    4968.605    -16.271  -0.900  2.10964E-02  3.46869E-02 -1.35905E-02
    4969.252    -15.623  -0.800  2.43954E-02  4.29631E-02 -1.85678E-02
    4969.824    -15.052  -0.700  2.85782E-02  5.46157E-02 -2.60374E-02
    4970.319    -14.557  -0.600  3.40839E-02  7.16739E-02 -3.75900E-02
    4970.738    -14.137  -0.500  4.16502E-02  9.76008E-02 -5.59507E-02
    4971.081    -13.795  -0.400  5.23671E-02  1.37595E-01 -8.52274E-02
    4971.348    -13.528  -0.300  6.69253E-02  1.95304E-01 -1.28379E-01
    4971.538    -13.337  -0.200  8.29498E-02  2.60948E-01 -1.77999E-01
    4971.653    -13.223  -0.100  9.47711E-02  3.09911E-01 -2.15140E-01
    4971.691    -13.185   0.000  9.88950E-02  3.27038E-01 -2.28143E-01
    4971.791    -13.085   0.162  1.09825E-01  3.71582E-01 -2.61757E-01
    4971.891    -12.985   0.229  1.20005E-01  4.12653E-01 -2.92648E-01
    4971.929    -12.947   0.250  1.23589E-01  4.26908E-01 -3.03319E-01
    4972.034    -12.842   0.300  1.32685E-01  4.61586E-01 -3.28901E-01
    4972.157    -12.718   0.350  1.42107E-01  4.94636E-01 -3.52529E-01
    4972.300    -12.575   0.400  1.51745E-01  5.24267E-01 -3.72522E-01
    4972.462    -12.413   0.450  1.61717E-01  5.50047E-01 -3.88330E-01
    4972.643    -12.232   0.500  1.72201E-01  5.72385E-01 -4.00184E-01
    4972.843    -12.032   0.550  1.83857E-01  5.91959E-01 -4.08102E-01
    4973.062    -11.813   0.600  1.98538E-01  6.09454E-01 -4.10916E-01
    4973.300    -11.575   0.650  2.19392E-01  6.25439E-01 -4.06047E-01
    4973.558    -11.318   0.700  2.46021E-01  6.40331E-01 -3.94309E-01
    4973.834    -11.042   0.750  2.69840E-01  6.54487E-01 -3.84647E-01
    4974.129    -10.747   0.800  2.84572E-01  6.68127E-01 -3.83555E-01
    4974.443    -10.432   0.850  2.94936E-01  6.81413E-01 -3.86478E-01
    4974.777    -10.099   0.900  3.08725E-01  6.94474E-01 -3.85749E-01
    4975.129     -9.746   0.950  3.17500E-01  7.07378E-01 -3.89878E-01
    4975.501     -9.375   1.000  3.10328E-01  7.20196E-01 -4.09868E-01
    4975.891     -8.984   1.050  3.11196E-01  7.32925E-01 -4.21729E-01
    4976.301     -8.575   1.100  3.43756E-01  7.45609E-01 -4.01853E-01
    4976.729     -8.146   1.150  4.21161E-01  7.58240E-01 -3.37080E-01
    4977.177     -7.699   1.200  5.54214E-01  7.70800E-01 -2.16586E-01
    4977.644     -7.232   1.250  7.19685E-01  7.83295E-01 -6.36102E-02
    4978.130     -6.746   1.300  8.22950E-01  7.95684E-01  2.72662E-02
    4978.634     -6.241   1.350  8.12504E-01  8.07953E-01  4.55053E-03
    4979.158     -5.717   1.400  7.79966E-01  8.20088E-01 -4.01216E-02
    4979.701     -5.174   1.450  7.82401E-01  8.32037E-01 -4.96361E-02
    4980.263     -4.613   1.500  8.14705E-01  8.43790E-01 -2.90850E-02
    4980.844     -4.031   1.550  8.44098E-01  8.55307E-01 -1.12087E-02
    4981.444     -3.431   1.600  8.52427E-01  8.66565E-01 -1.41381E-02
    4982.063     -2.812   1.650  8.87212E-01  8.77543E-01  9.66831E-03
    4982.702     -2.174   1.700  9.22293E-01  8.88197E-01  3.40968E-02
    4983.359     -1.517   1.750  9.54245E-01  8.98503E-01  5.57419E-02
    4984.035     -0.841   1.800  1.01938E+00  9.08445E-01  1.10937E-01
    4984.730     -0.145   1.850  1.08998E+00  9.17995E-01  1.71989E-01
    4985.445      0.569   1.900  1.21363E+00  9.27130E-01  2.86503E-01
    4986.178      1.302   1.950  1.41616E+00  9.35842E-01  4.80319E-01
    4986.931      2.055   2.000  1.59584E+00  9.44104E-01  6.51732E-01
    4987.702      2.826   2.050  1.69074E+00  9.51909E-01  7.38835E-01
    4988.493      3.617   2.100  1.66115E+00  9.59239E-01  7.01910E-01
    4989.302      4.427   2.150  1.53704E+00  9.66090E-01  5.70951E-01
    4990.131      5.255   2.200  1.44460E+00  9.72457E-01  4.72146E-01
    4990.979      6.103   2.250  1.26261E+00  9.78330E-01  2.84282E-01
    4991.846      6.970   2.300  1.05445E+00  9.83725E-01  7.07233E-02
    4992.731      7.856   2.350  9.33856E-01  9.88640E-01 -5.47836E-02
    4993.636      8.761   2.400  8.73800E-01  9.93065E-01 -1.19265E-01
    4994.560      9.684   2.450  8.52983E-01  9.97015E-01 -1.44031E-01
    4995.503     10.627   2.500  8.67926E-01  1.00051E+00 -1.32582E-01
    4996.465     11.589   2.550  9.15402E-01  1.00355E+00 -8.81516E-02
    4997.446     12.571   2.600  9.87653E-01  1.00617E+00 -1.85141E-02
    4998.446     13.571   2.650  1.05975E+00  1.00836E+00  5.13862E-02
    4999.466     14.590   2.700  1.10051E+00  1.01014E+00  9.03761E-02
    5000.504     15.628   2.750  1.09387E+00  1.01154E+00  8.23223E-02
    5001.561     16.685   2.800  1.05108E+00  1.01258E+00  3.84933E-02
    5002.637     17.762   2.850  9.95919E-01  1.01328E+00 -1.73606E-02
    5003.733     18.857   2.900  9.48461E-01  1.01367E+00 -6.52065E-02
    5004.847     19.971   2.950  9.18581E-01  1.01374E+00 -9.51612E-02
    5005.981     21.105   3.000  9.06399E-01  1.01355E+00 -1.07152E-01
    5007.133     22.257   3.050  9.04543E-01  1.01311E+00 -1.08562E-01
    5008.305     23.429   3.100  9.06506E-01  1.01244E+00 -1.05930E-01
    5009.495     24.620   3.150  9.08144E-01  1.01155E+00 -1.03407E-01
    5010.705     25.829   3.200  9.06950E-01  1.01048E+00 -1.03530E-01
    5011.934     27.058   3.250  9.00790E-01  1.00925E+00 -1.08464E-01
    5013.181     28.306   3.300  8.88004E-01  1.00789E+00 -1.19886E-01
    5014.448     29.573   3.350  8.70836E-01  1.00640E+00 -1.35565E-01
    5015.734     30.858   3.400  8.54512E-01  1.00482E+00 -1.50306E-01
    5017.039     32.163   3.450  8.43106E-01  1.00315E+00 -1.60049E-01
    5018.363     33.487   3.500  8.38349E-01  1.00144E+00 -1.63091E-01
    5019.706     34.830   3.550  8.40369E-01  9.99666E-01 -1.59297E-01
    5021.068     36.192   3.600  8.48020E-01  9.97882E-01 -1.49862E-01
    5022.449     37.574   3.650  8.59998E-01  9.96080E-01 -1.36082E-01
    5023.849     38.974   3.700  8.76238E-01  9.94275E-01 -1.18037E-01
    5025.269     40.393   3.750  8.98226E-01  9.92491E-01 -9.42645E-02
    5026.707     41.831   3.800  9.28139E-01  9.90732E-01 -6.25924E-02
    5028.164     43.289   3.850  9.67781E-01  9.89022E-01 -2.12416E-02
    5029.641     44.765   3.900  1.01699E+00  9.87386E-01  2.96003E-02
    5031.136     46.260   3.950  1.07136E+00  9.85826E-01  8.55347E-02
    5032.651     47.775   4.000  1.11962E+00  9.84374E-01  1.35246E-01
